-2.750000000000000222e-01
-2.449999999999999956e-01
-2.849999999999999756e-01
-2.650000000000000133e-01
-2.349999999999999867e-01
-2.149999999999999967e-01
-1.650000000000000078e-01
-1.650000000000000078e-01
-1.449999999999999900e-01
-9.500000000000000111e-02
-8.500000000000000611e-02
-4.499999999999999833e-02
2.500000000000000139e-02
8.500000000000000611e-02
1.749999999999999889e-01
2.149999999999999967e-01
2.550000000000000044e-01
3.049999999999999933e-01
2.849999999999999756e-01
2.849999999999999756e-01
2.449999999999999956e-01
1.749999999999999889e-01
1.250000000000000000e-01
1.499999999999999944e-02
-7.499999999999999722e-02
-1.250000000000000000e-01
-1.749999999999999889e-01
-2.049999999999999878e-01
-1.950000000000000067e-01
-2.049999999999999878e-01
-1.650000000000000078e-01
-1.849999999999999978e-01
-1.849999999999999978e-01
-1.849999999999999978e-01
-1.950000000000000067e-01
-1.950000000000000067e-01
-1.849999999999999978e-01
-1.650000000000000078e-01
-1.449999999999999900e-01
-1.350000000000000089e-01
-1.449999999999999900e-01
-1.549999999999999989e-01
-1.849999999999999978e-01
-1.849999999999999978e-01
-1.650000000000000078e-01
-1.749999999999999889e-01
-1.449999999999999900e-01
-1.650000000000000078e-01
-1.650000000000000078e-01
-1.749999999999999889e-01
-1.849999999999999978e-01
-1.950000000000000067e-01
-1.950000000000000067e-01
-1.749999999999999889e-01
-1.650000000000000078e-01
-1.650000000000000078e-01
-1.749999999999999889e-01
-1.749999999999999889e-01
-1.849999999999999978e-01
-2.049999999999999878e-01
-1.950000000000000067e-01
-1.849999999999999978e-01
-1.650000000000000078e-01
-1.350000000000000089e-01
-1.150000000000000050e-01
-6.500000000000000222e-02
-7.499999999999999722e-02
-7.499999999999999722e-02
3.500000000000000333e-02
5.000000000000000104e-03
-6.500000000000000222e-02
-8.500000000000000611e-02
-1.049999999999999961e-01
-1.549999999999999989e-01
-1.749999999999999889e-01
-1.950000000000000067e-01
-1.849999999999999978e-01
-1.749999999999999889e-01
-1.449999999999999900e-01
-1.549999999999999989e-01
-1.650000000000000078e-01
-1.749999999999999889e-01
-1.749999999999999889e-01
-1.549999999999999989e-01
-3.350000000000000200e-01
-6.750000000000000444e-01
-3.449999999999999734e-01
1.274999999999999911e+00
2.464999999999999858e+00
2.895000000000000018e+00
1.804999999999999938e+00
1.950000000000000067e-01
-1.250000000000000000e-01
-1.549999999999999989e-01
-1.749999999999999889e-01
-2.149999999999999967e-01
-2.349999999999999867e-01
-2.149999999999999967e-01
-2.550000000000000044e-01
-2.550000000000000044e-01
-2.250000000000000056e-01
-2.250000000000000056e-01
-1.950000000000000067e-01
-1.950000000000000067e-01
-1.950000000000000067e-01
-1.650000000000000078e-01
-1.950000000000000067e-01
-1.650000000000000078e-01
-1.250000000000000000e-01
-1.049999999999999961e-01
-3.500000000000000333e-02
-1.499999999999999944e-02
2.500000000000000139e-02
8.500000000000000611e-02
1.049999999999999961e-01
1.749999999999999889e-01
2.349999999999999867e-01
2.750000000000000222e-01
3.549999999999999822e-01
3.950000000000000178e-01
3.950000000000000178e-01
4.050000000000000266e-01
2.949999999999999845e-01
2.149999999999999967e-01
1.449999999999999900e-01
4.499999999999999833e-02
1.499999999999999944e-02
-4.499999999999999833e-02
-7.499999999999999722e-02
-8.500000000000000611e-02
-1.350000000000000089e-01
-1.350000000000000089e-01
-1.150000000000000050e-01
-1.049999999999999961e-01
-8.500000000000000611e-02
-8.500000000000000611e-02
-9.500000000000000111e-02
-9.500000000000000111e-02
-1.150000000000000050e-01
-1.049999999999999961e-01
-1.049999999999999961e-01
-8.500000000000000611e-02
-6.500000000000000222e-02
-8.500000000000000611e-02
-9.500000000000000111e-02
-7.499999999999999722e-02
-1.049999999999999961e-01
-1.049999999999999961e-01
-1.049999999999999961e-01
-9.500000000000000111e-02
-8.500000000000000611e-02
-8.500000000000000611e-02
-1.049999999999999961e-01
-1.049999999999999961e-01
-1.150000000000000050e-01
-1.250000000000000000e-01
-1.250000000000000000e-01
-1.150000000000000050e-01
-1.049999999999999961e-01
-1.150000000000000050e-01
-1.049999999999999961e-01
-1.150000000000000050e-01
-1.350000000000000089e-01
-1.449999999999999900e-01
-1.250000000000000000e-01
-1.150000000000000050e-01
-9.500000000000000111e-02
-9.500000000000000111e-02
-9.500000000000000111e-02
-1.049999999999999961e-01
-1.049999999999999961e-01
-1.049999999999999961e-01
-5.500000000000000028e-02
-1.499999999999999944e-02
-2.500000000000000139e-02
4.499999999999999833e-02
7.499999999999999722e-02
1.499999999999999944e-02
-8.500000000000000611e-02
-7.499999999999999722e-02
-7.499999999999999722e-02
-1.350000000000000089e-01
-1.049999999999999961e-01
-1.250000000000000000e-01
-1.250000000000000000e-01
-1.150000000000000050e-01
-1.449999999999999900e-01
-1.449999999999999900e-01
-1.350000000000000089e-01
-1.250000000000000000e-01
-8.500000000000000611e-02
-7.499999999999999722e-02
-3.649999999999999911e-01
-6.149999999999999911e-01
-3.500000000000000333e-02
1.564999999999999947e+00
2.575000000000000178e+00
2.895000000000000018e+00
1.415000000000000036e+00
6.500000000000000222e-02
-8.500000000000000611e-02
-1.150000000000000050e-01
-1.849999999999999978e-01
-2.049999999999999878e-01
-2.049999999999999878e-01
-2.149999999999999967e-01
-1.849999999999999978e-01
-1.950000000000000067e-01
-1.950000000000000067e-01
-1.849999999999999978e-01
-2.049999999999999878e-01
-2.049999999999999878e-01
-1.849999999999999978e-01
-1.849999999999999978e-01
-1.350000000000000089e-01
-1.250000000000000000e-01
-1.150000000000000050e-01
-8.500000000000000611e-02
-8.500000000000000611e-02
-4.499999999999999833e-02
5.000000000000000104e-03
5.500000000000000028e-02
1.350000000000000089e-01
1.749999999999999889e-01
2.250000000000000056e-01
2.849999999999999756e-01
3.049999999999999933e-01
3.449999999999999734e-01
3.649999999999999911e-01
3.549999999999999822e-01
3.350000000000000200e-01
2.449999999999999956e-01
1.350000000000000089e-01
5.500000000000000028e-02
-6.500000000000000222e-02
-1.150000000000000050e-01
-1.350000000000000089e-01
-1.650000000000000078e-01
-1.350000000000000089e-01
-1.549999999999999989e-01
-1.449999999999999900e-01
-1.549999999999999989e-01
-1.749999999999999889e-01
-1.749999999999999889e-01
-1.650000000000000078e-01
-1.549999999999999989e-01
-1.350000000000000089e-01
-1.350000000000000089e-01
-1.449999999999999900e-01
-1.350000000000000089e-01
-1.549999999999999989e-01
-1.749999999999999889e-01
-1.650000000000000078e-01
-1.549999999999999989e-01
-1.350000000000000089e-01
-1.350000000000000089e-01
-1.350000000000000089e-01
-1.449999999999999900e-01
-1.650000000000000078e-01
-1.650000000000000078e-01
-1.749999999999999889e-01
-1.650000000000000078e-01
-1.549999999999999989e-01
-1.650000000000000078e-01
-1.749999999999999889e-01
-1.650000000000000078e-01
-1.950000000000000067e-01
-2.049999999999999878e-01
-1.849999999999999978e-01
-1.749999999999999889e-01
-1.650000000000000078e-01
-1.650000000000000078e-01
-1.650000000000000078e-01
-1.849999999999999978e-01
-1.849999999999999978e-01
-1.849999999999999978e-01
-1.650000000000000078e-01
-1.549999999999999989e-01
-1.449999999999999900e-01
-1.449999999999999900e-01
-1.350000000000000089e-01
-1.350000000000000089e-01
-1.350000000000000089e-01
-8.500000000000000611e-02
-6.500000000000000222e-02
-1.499999999999999944e-02
7.499999999999999722e-02
-1.499999999999999944e-02
-9.500000000000000111e-02
-6.500000000000000222e-02
-1.350000000000000089e-01
-1.749999999999999889e-01
-1.749999999999999889e-01
-1.749999999999999889e-01
-1.449999999999999900e-01
-1.449999999999999900e-01
-1.449999999999999900e-01
-1.449999999999999900e-01
-1.749999999999999889e-01
-1.849999999999999978e-01
-1.650000000000000078e-01
-1.549999999999999989e-01
-5.050000000000000044e-01
-6.949999999999999512e-01
-5.000000000000000104e-03
1.604999999999999982e+00
2.584999999999999964e+00
2.904999999999999805e+00
1.544999999999999929e+00
2.500000000000000139e-02
-1.250000000000000000e-01
-1.449999999999999900e-01
-2.049999999999999878e-01
-2.250000000000000056e-01
-2.650000000000000133e-01
-2.750000000000000222e-01
-2.750000000000000222e-01
-2.650000000000000133e-01
-2.449999999999999956e-01
-2.449999999999999956e-01
-2.449999999999999956e-01
-2.250000000000000056e-01
-2.349999999999999867e-01
-2.149999999999999967e-01
-1.849999999999999978e-01
-1.849999999999999978e-01
-1.250000000000000000e-01
-1.250000000000000000e-01
-8.500000000000000611e-02
-5.500000000000000028e-02
-3.500000000000000333e-02
-1.499999999999999944e-02
5.500000000000000028e-02
1.250000000000000000e-01
2.049999999999999878e-01
2.449999999999999956e-01
2.849999999999999756e-01
3.250000000000000111e-01
3.449999999999999734e-01
3.250000000000000111e-01
2.949999999999999845e-01
2.449999999999999956e-01
1.549999999999999989e-01
8.500000000000000611e-02
-1.499999999999999944e-02
-9.500000000000000111e-02
-1.449999999999999900e-01
-2.049999999999999878e-01
-1.950000000000000067e-01
-1.749999999999999889e-01
-1.749999999999999889e-01
-1.749999999999999889e-01
-1.849999999999999978e-01
-1.849999999999999978e-01
-1.950000000000000067e-01
-2.149999999999999967e-01
-1.950000000000000067e-01
-1.849999999999999978e-01
-1.849999999999999978e-01
-1.749999999999999889e-01
-1.749999999999999889e-01
-1.749999999999999889e-01
-1.849999999999999978e-01
-2.149999999999999967e-01
-2.049999999999999878e-01
-1.849999999999999978e-01
-1.749999999999999889e-01
-1.749999999999999889e-01
-1.849999999999999978e-01
-1.950000000000000067e-01
-2.149999999999999967e-01
-2.250000000000000056e-01
-2.149999999999999967e-01
-2.049999999999999878e-01
-1.950000000000000067e-01
-1.950000000000000067e-01
-2.149999999999999967e-01
-2.049999999999999878e-01
-2.250000000000000056e-01
-2.250000000000000056e-01
-2.149999999999999967e-01
-2.149999999999999967e-01
-1.749999999999999889e-01
-1.650000000000000078e-01
-1.650000000000000078e-01
-1.350000000000000089e-01
-1.250000000000000000e-01
-1.150000000000000050e-01
-6.500000000000000222e-02
5.000000000000000104e-03
-1.499999999999999944e-02
-1.049999999999999961e-01
-1.150000000000000050e-01
-1.250000000000000000e-01
-2.049999999999999878e-01
-2.149999999999999967e-01
-2.250000000000000056e-01
-2.149999999999999967e-01
-1.849999999999999978e-01
-1.849999999999999978e-01
-1.849999999999999978e-01
-1.849999999999999978e-01
-2.149999999999999967e-01
-1.950000000000000067e-01
-1.549999999999999989e-01
-3.049999999999999933e-01
-6.750000000000000444e-01
-5.749999999999999556e-01
7.650000000000000133e-01
2.194999999999999840e+00
2.854999999999999982e+00
2.415000000000000036e+00
5.050000000000000044e-01
-1.650000000000000078e-01
-1.449999999999999900e-01
-1.950000000000000067e-01
-2.349999999999999867e-01
-2.550000000000000044e-01
-2.750000000000000222e-01
-2.849999999999999756e-01
-2.650000000000000133e-01
-2.550000000000000044e-01
-2.250000000000000056e-01
-2.250000000000000056e-01
-2.250000000000000056e-01
-2.149999999999999967e-01
-2.149999999999999967e-01
-2.149999999999999967e-01
-1.749999999999999889e-01
-1.549999999999999989e-01
-9.500000000000000111e-02
-8.500000000000000611e-02
-4.499999999999999833e-02
-5.000000000000000104e-03
2.500000000000000139e-02
7.499999999999999722e-02
1.549999999999999989e-01
2.149999999999999967e-01
2.849999999999999756e-01
3.350000000000000200e-01
3.649999999999999911e-01
3.950000000000000178e-01
3.649999999999999911e-01
3.250000000000000111e-01
2.550000000000000044e-01
1.849999999999999978e-01
1.150000000000000050e-01
5.000000000000000104e-03
-3.500000000000000333e-02
-9.500000000000000111e-02
-1.449999999999999900e-01
-1.549999999999999989e-01
-1.449999999999999900e-01
-1.549999999999999989e-01
-1.250000000000000000e-01
-1.250000000000000000e-01
-1.350000000000000089e-01
-1.250000000000000000e-01
-1.449999999999999900e-01
-1.350000000000000089e-01
-1.350000000000000089e-01
-1.350000000000000089e-01
-9.500000000000000111e-02
-9.500000000000000111e-02
-9.500000000000000111e-02
-9.500000000000000111e-02
-1.250000000000000000e-01
-1.150000000000000050e-01
-1.049999999999999961e-01
-1.150000000000000050e-01
-9.500000000000000111e-02
-1.049999999999999961e-01
-1.150000000000000050e-01
-1.150000000000000050e-01
-1.350000000000000089e-01
-1.449999999999999900e-01
-1.449999999999999900e-01
-1.150000000000000050e-01
-1.049999999999999961e-01
-1.150000000000000050e-01
-1.250000000000000000e-01
-1.150000000000000050e-01
-1.350000000000000089e-01
-1.350000000000000089e-01
-1.250000000000000000e-01
-1.250000000000000000e-01
-9.500000000000000111e-02
-1.049999999999999961e-01
-1.049999999999999961e-01
-9.500000000000000111e-02
-1.150000000000000050e-01
-9.500000000000000111e-02
-8.500000000000000611e-02
-2.500000000000000139e-02
2.500000000000000139e-02
5.000000000000000104e-03
9.500000000000000111e-02
9.500000000000000111e-02
-1.499999999999999944e-02
-6.500000000000000222e-02
-4.499999999999999833e-02
-6.500000000000000222e-02
-8.500000000000000611e-02
-1.049999999999999961e-01
-1.250000000000000000e-01
-1.150000000000000050e-01
-1.449999999999999900e-01
-1.350000000000000089e-01
-1.350000000000000089e-01
-1.350000000000000089e-01
-9.500000000000000111e-02
-8.500000000000000611e-02
-9.500000000000000111e-02
-4.149999999999999800e-01
-6.650000000000000355e-01
1.549999999999999989e-01
1.754999999999999893e+00
2.674999999999999822e+00
2.915000000000000036e+00
1.225000000000000089e+00
1.499999999999999944e-02
-6.500000000000000222e-02
-1.449999999999999900e-01
-1.849999999999999978e-01
-2.049999999999999878e-01
-2.149999999999999967e-01
-1.849999999999999978e-01
-1.950000000000000067e-01
-2.049999999999999878e-01
-2.049999999999999878e-01
-2.049999999999999878e-01
-2.049999999999999878e-01
-1.950000000000000067e-01
-1.749999999999999889e-01
-1.449999999999999900e-01
-1.350000000000000089e-01
-1.150000000000000050e-01
-9.500000000000000111e-02
-9.500000000000000111e-02
-6.500000000000000222e-02
-1.499999999999999944e-02
3.500000000000000333e-02
1.150000000000000050e-01
1.650000000000000078e-01
2.049999999999999878e-01
2.550000000000000044e-01
2.949999999999999845e-01
3.350000000000000200e-01
3.950000000000000178e-01
4.149999999999999800e-01
4.149999999999999800e-01
3.649999999999999911e-01
2.650000000000000133e-01
1.749999999999999889e-01
5.500000000000000028e-02
-1.499999999999999944e-02
-4.499999999999999833e-02
-7.499999999999999722e-02
-7.499999999999999722e-02
-8.500000000000000611e-02
-9.500000000000000111e-02
-1.049999999999999961e-01
-1.150000000000000050e-01
-1.150000000000000050e-01
-1.049999999999999961e-01
-9.500000000000000111e-02
-7.499999999999999722e-02
-7.499999999999999722e-02
-8.500000000000000611e-02
-8.500000000000000611e-02
-1.049999999999999961e-01
-1.150000000000000050e-01
-1.049999999999999961e-01
-1.049999999999999961e-01
-8.500000000000000611e-02
-9.500000000000000111e-02
-1.049999999999999961e-01
-1.049999999999999961e-01
-1.350000000000000089e-01
-1.350000000000000089e-01
-1.350000000000000089e-01
-1.350000000000000089e-01
-1.150000000000000050e-01
-1.350000000000000089e-01
-1.449999999999999900e-01
-1.350000000000000089e-01
-1.549999999999999989e-01
-1.650000000000000078e-01
-1.549999999999999989e-01
-1.650000000000000078e-01
-1.250000000000000000e-01
-1.350000000000000089e-01
-1.350000000000000089e-01
-1.449999999999999900e-01
-1.650000000000000078e-01
-1.650000000000000078e-01
-1.549999999999999989e-01
-1.549999999999999989e-01
-1.250000000000000000e-01
-1.350000000000000089e-01
-1.350000000000000089e-01
-1.350000000000000089e-01
-1.350000000000000089e-01
-1.350000000000000089e-01
-1.049999999999999961e-01
-6.500000000000000222e-02
-3.500000000000000333e-02
5.000000000000000104e-03
6.500000000000000222e-02
1.499999999999999944e-02
-1.150000000000000050e-01
-1.049999999999999961e-01
-1.049999999999999961e-01
-1.350000000000000089e-01
-1.350000000000000089e-01
-1.549999999999999989e-01
-1.749999999999999889e-01
-1.650000000000000078e-01
-1.749999999999999889e-01
-1.849999999999999978e-01
-1.749999999999999889e-01
-1.650000000000000078e-01
-1.650000000000000078e-01
-1.449999999999999900e-01
-1.849999999999999978e-01
-6.049999999999999822e-01
-6.650000000000000355e-01
4.149999999999999800e-01
1.885000000000000009e+00
2.734999999999999876e+00
2.424999999999999822e+00
5.050000000000000044e-01
-1.350000000000000089e-01
-1.749999999999999889e-01
-2.349999999999999867e-01
-2.650000000000000133e-01
-2.849999999999999756e-01
-2.949999999999999845e-01
-2.650000000000000133e-01
-2.650000000000000133e-01
-2.750000000000000222e-01
-2.550000000000000044e-01
-2.750000000000000222e-01
-2.750000000000000222e-01
-2.550000000000000044e-01
-2.550000000000000044e-01
-2.049999999999999878e-01
-1.950000000000000067e-01
-1.849999999999999978e-01
-1.650000000000000078e-01
-1.549999999999999989e-01
-1.250000000000000000e-01
-7.499999999999999722e-02
-3.500000000000000333e-02
5.500000000000000028e-02
1.049999999999999961e-01
1.549999999999999989e-01
2.049999999999999878e-01
2.349999999999999867e-01
2.650000000000000133e-01
3.049999999999999933e-01
3.250000000000000111e-01
3.250000000000000111e-01
2.449999999999999956e-01
1.549999999999999989e-01
6.500000000000000222e-02
-7.499999999999999722e-02
-1.449999999999999900e-01
-1.749999999999999889e-01
-2.049999999999999878e-01
-1.950000000000000067e-01
-1.950000000000000067e-01
-2.049999999999999878e-01
-1.950000000000000067e-01
-2.349999999999999867e-01
-2.149999999999999967e-01
-2.149999999999999967e-01
-2.349999999999999867e-01
-1.950000000000000067e-01
-1.950000000000000067e-01
-2.049999999999999878e-01
-1.950000000000000067e-01
-2.149999999999999967e-01
-2.149999999999999967e-01
-2.149999999999999967e-01
-2.250000000000000056e-01
-2.049999999999999878e-01
-2.250000000000000056e-01
-2.250000000000000056e-01
-2.149999999999999967e-01
-2.550000000000000044e-01
-2.449999999999999956e-01
-2.550000000000000044e-01
-2.650000000000000133e-01
-2.250000000000000056e-01
-2.349999999999999867e-01
-2.449999999999999956e-01
-2.449999999999999956e-01
-2.650000000000000133e-01
-2.750000000000000222e-01
-2.650000000000000133e-01
-2.550000000000000044e-01
-2.349999999999999867e-01
-2.349999999999999867e-01
-2.550000000000000044e-01
-2.349999999999999867e-01
-2.449999999999999956e-01
-2.550000000000000044e-01
-2.449999999999999956e-01
-2.349999999999999867e-01
-1.950000000000000067e-01
-2.049999999999999878e-01
-1.650000000000000078e-01
-1.449999999999999900e-01
-1.749999999999999889e-01
-7.499999999999999722e-02
-6.500000000000000222e-02
-1.549999999999999989e-01
-1.449999999999999900e-01
-1.549999999999999989e-01
-2.149999999999999967e-01
-2.349999999999999867e-01
-2.650000000000000133e-01
-2.650000000000000133e-01
-2.449999999999999956e-01
-2.550000000000000044e-01
-2.250000000000000056e-01
-2.250000000000000056e-01
-2.349999999999999867e-01
-2.250000000000000056e-01
-2.349999999999999867e-01
-3.649999999999999911e-01
-7.750000000000000222e-01
-7.049999999999999600e-01
7.349999999999999867e-01
2.154999999999999805e+00
2.785000000000000142e+00
2.305000000000000160e+00
3.350000000000000200e-01
-2.750000000000000222e-01
-2.349999999999999867e-01
-2.750000000000000222e-01
-2.949999999999999845e-01
-3.049999999999999933e-01
-3.250000000000000111e-01
-3.150000000000000022e-01
-3.449999999999999734e-01
-3.350000000000000200e-01
-3.250000000000000111e-01
-3.150000000000000022e-01
-2.849999999999999756e-01
-2.849999999999999756e-01
-2.750000000000000222e-01
-2.449999999999999956e-01
-2.650000000000000133e-01
-2.449999999999999956e-01
-2.049999999999999878e-01
-1.849999999999999978e-01
-1.250000000000000000e-01
-8.500000000000000611e-02
-3.500000000000000333e-02
1.499999999999999944e-02
3.500000000000000333e-02
9.500000000000000111e-02
1.549999999999999989e-01
2.049999999999999878e-01
2.750000000000000222e-01
3.049999999999999933e-01
2.949999999999999845e-01
2.849999999999999756e-01
1.549999999999999989e-01
7.499999999999999722e-02
-5.000000000000000104e-03
-9.500000000000000111e-02
-1.150000000000000050e-01
-1.749999999999999889e-01
-2.149999999999999967e-01
-2.149999999999999967e-01
-2.449999999999999956e-01
-2.349999999999999867e-01
-2.250000000000000056e-01
-2.349999999999999867e-01
-2.049999999999999878e-01
-1.950000000000000067e-01
-2.049999999999999878e-01
-2.049999999999999878e-01
-2.149999999999999967e-01
-2.049999999999999878e-01
-1.849999999999999978e-01
-2.049999999999999878e-01
-1.749999999999999889e-01
-1.749999999999999889e-01
-1.849999999999999978e-01
-1.749999999999999889e-01
-1.950000000000000067e-01
-1.950000000000000067e-01
-1.849999999999999978e-01
-1.950000000000000067e-01
-1.749999999999999889e-01
-1.749999999999999889e-01
-1.749999999999999889e-01
-1.849999999999999978e-01
-1.950000000000000067e-01
-2.049999999999999878e-01
-1.950000000000000067e-01
-2.049999999999999878e-01
-1.849999999999999978e-01
-1.950000000000000067e-01
-1.849999999999999978e-01
-1.849999999999999978e-01
-2.149999999999999967e-01
-2.149999999999999967e-01
-1.950000000000000067e-01
-1.950000000000000067e-01
-1.150000000000000050e-01
-9.500000000000000111e-02
-1.150000000000000050e-01
-1.049999999999999961e-01
-3.500000000000000333e-02
-5.500000000000000028e-02
-1.350000000000000089e-01
-1.350000000000000089e-01
-1.350000000000000089e-01
-1.749999999999999889e-01
-1.849999999999999978e-01
-2.049999999999999878e-01
-2.250000000000000056e-01
-2.250000000000000056e-01
-2.149999999999999967e-01
-1.950000000000000067e-01
-1.849999999999999978e-01
-1.849999999999999978e-01
-1.849999999999999978e-01
-1.549999999999999989e-01
-3.950000000000000178e-01
-7.249999999999999778e-01
-4.149999999999999800e-01
1.235000000000000098e+00
2.345000000000000195e+00
2.814999999999999947e+00
2.095000000000000195e+00
2.650000000000000133e-01
-1.749999999999999889e-01
-2.049999999999999878e-01
-2.550000000000000044e-01
-2.849999999999999756e-01
-2.449999999999999956e-01
-2.650000000000000133e-01
-2.750000000000000222e-01
-2.650000000000000133e-01
-2.750000000000000222e-01
-2.849999999999999756e-01
-2.550000000000000044e-01
-2.349999999999999867e-01
-2.049999999999999878e-01
-1.950000000000000067e-01
-1.749999999999999889e-01
-1.549999999999999989e-01
-1.749999999999999889e-01
-1.250000000000000000e-01
-9.500000000000000111e-02
-6.500000000000000222e-02
-5.000000000000000104e-03
3.500000000000000333e-02
8.500000000000000611e-02
1.650000000000000078e-01
1.950000000000000067e-01
2.449999999999999956e-01
2.949999999999999845e-01
3.449999999999999734e-01
3.950000000000000178e-01
3.649999999999999911e-01
3.250000000000000111e-01
2.349999999999999867e-01
1.150000000000000050e-01
5.000000000000000104e-03
-6.500000000000000222e-02
-1.049999999999999961e-01
-1.150000000000000050e-01
-1.350000000000000089e-01
-1.549999999999999989e-01
-1.650000000000000078e-01
-1.849999999999999978e-01
-1.849999999999999978e-01
-1.749999999999999889e-01
-1.549999999999999989e-01
-1.250000000000000000e-01
-1.350000000000000089e-01
-1.549999999999999989e-01
-1.350000000000000089e-01
-1.549999999999999989e-01
-1.650000000000000078e-01
-1.350000000000000089e-01
-1.350000000000000089e-01
-1.049999999999999961e-01
-1.049999999999999961e-01
-1.250000000000000000e-01
-1.150000000000000050e-01
-1.449999999999999900e-01
-1.350000000000000089e-01
-1.350000000000000089e-01
-1.449999999999999900e-01
-1.250000000000000000e-01
-1.449999999999999900e-01
-1.449999999999999900e-01
-1.350000000000000089e-01
-1.849999999999999978e-01
-1.849999999999999978e-01
-1.650000000000000078e-01
-1.549999999999999989e-01
-1.449999999999999900e-01
-1.449999999999999900e-01
-1.549999999999999989e-01
-1.449999999999999900e-01
-1.849999999999999978e-01
-1.849999999999999978e-01
-1.749999999999999889e-01
-1.650000000000000078e-01
-1.350000000000000089e-01
-1.350000000000000089e-01
-1.150000000000000050e-01
-9.500000000000000111e-02
-7.499999999999999722e-02
-8.500000000000000611e-02
-4.499999999999999833e-02
3.500000000000000333e-02
3.500000000000000333e-02
-6.500000000000000222e-02
-8.500000000000000611e-02
-8.500000000000000611e-02
-1.350000000000000089e-01
-1.650000000000000078e-01
-1.749999999999999889e-01
-1.749999999999999889e-01
-1.350000000000000089e-01
-1.549999999999999989e-01
-1.549999999999999989e-01
-1.350000000000000089e-01
-1.650000000000000078e-01
-1.650000000000000078e-01
-1.350000000000000089e-01
-2.349999999999999867e-01
-6.250000000000000000e-01
-5.050000000000000044e-01
1.114999999999999991e+00
2.365000000000000213e+00
2.854999999999999982e+00
2.125000000000000000e+00
4.050000000000000266e-01
-9.500000000000000111e-02
-9.500000000000000111e-02
-1.650000000000000078e-01
-2.149999999999999967e-01
-2.250000000000000056e-01
-2.750000000000000222e-01
-2.650000000000000133e-01
-2.650000000000000133e-01
-2.750000000000000222e-01
-2.149999999999999967e-01
-2.349999999999999867e-01
-2.349999999999999867e-01
-2.149999999999999967e-01
-2.349999999999999867e-01
-2.149999999999999967e-01
-1.950000000000000067e-01
-1.749999999999999889e-01
-1.250000000000000000e-01
-1.049999999999999961e-01
-8.500000000000000611e-02
-2.500000000000000139e-02
5.000000000000000104e-03
6.500000000000000222e-02
1.150000000000000050e-01
1.650000000000000078e-01
2.349999999999999867e-01
2.849999999999999756e-01
3.049999999999999933e-01
3.549999999999999822e-01
3.549999999999999822e-01
3.049999999999999933e-01
2.449999999999999956e-01
1.449999999999999900e-01
8.500000000000000611e-02
-1.499999999999999944e-02
-9.500000000000000111e-02
-1.250000000000000000e-01
-1.849999999999999978e-01
-1.950000000000000067e-01
-1.950000000000000067e-01
-1.950000000000000067e-01
-1.749999999999999889e-01
-1.749999999999999889e-01
-1.849999999999999978e-01
-1.849999999999999978e-01
-2.250000000000000056e-01
-2.250000000000000056e-01
-2.049999999999999878e-01
-1.749999999999999889e-01
-1.749999999999999889e-01
-1.849999999999999978e-01
-1.849999999999999978e-01
-1.950000000000000067e-01
-2.149999999999999967e-01
-2.049999999999999878e-01
-1.950000000000000067e-01
-2.049999999999999878e-01
-1.849999999999999978e-01
-1.849999999999999978e-01
-1.950000000000000067e-01
-2.049999999999999878e-01
-2.250000000000000056e-01
-2.349999999999999867e-01
-2.349999999999999867e-01
-2.349999999999999867e-01
-2.049999999999999878e-01
-2.149999999999999967e-01
-2.250000000000000056e-01
-2.250000000000000056e-01
-2.349999999999999867e-01
-2.449999999999999956e-01
-2.349999999999999867e-01
-2.349999999999999867e-01
-1.950000000000000067e-01
-2.250000000000000056e-01
-2.149999999999999967e-01
-2.149999999999999967e-01
-2.449999999999999956e-01
-2.149999999999999967e-01
-2.149999999999999967e-01
-1.749999999999999889e-01
-1.150000000000000050e-01
-1.350000000000000089e-01
-1.049999999999999961e-01
-1.499999999999999944e-02
-1.150000000000000050e-01
-1.749999999999999889e-01
-1.449999999999999900e-01
-1.749999999999999889e-01
-1.849999999999999978e-01
-1.950000000000000067e-01
-2.250000000000000056e-01
-2.250000000000000056e-01
-2.449999999999999956e-01
-2.550000000000000044e-01
-2.449999999999999956e-01
-2.349999999999999867e-01
-2.149999999999999967e-01
-2.049999999999999878e-01
-2.049999999999999878e-01
-4.949999999999999956e-01
-7.850000000000000311e-01
-4.650000000000000244e-01
1.034999999999999920e+00
2.345000000000000195e+00
2.884999999999999787e+00
1.625000000000000000e+00
5.000000000000000104e-03
-1.950000000000000067e-01
-2.650000000000000133e-01
-3.049999999999999933e-01
-3.150000000000000022e-01
-3.250000000000000111e-01
-2.949999999999999845e-01
-3.049999999999999933e-01
-3.049999999999999933e-01
-2.849999999999999756e-01
-3.150000000000000022e-01
-3.250000000000000111e-01
-2.849999999999999756e-01
-2.750000000000000222e-01
-2.349999999999999867e-01
-2.449999999999999956e-01
-2.149999999999999967e-01
-1.849999999999999978e-01
-1.849999999999999978e-01
-1.749999999999999889e-01
-1.350000000000000089e-01
-8.500000000000000611e-02
-2.500000000000000139e-02
1.499999999999999944e-02
7.499999999999999722e-02
1.449999999999999900e-01
1.749999999999999889e-01
2.149999999999999967e-01
2.750000000000000222e-01
3.049999999999999933e-01
3.150000000000000022e-01
2.650000000000000133e-01
1.849999999999999978e-01
8.500000000000000611e-02
-1.499999999999999944e-02
-1.150000000000000050e-01
-1.549999999999999989e-01
-1.849999999999999978e-01
-1.849999999999999978e-01
-2.049999999999999878e-01
-2.250000000000000056e-01
-2.149999999999999967e-01
-2.550000000000000044e-01
-2.449999999999999956e-01
-2.449999999999999956e-01
-2.250000000000000056e-01
-1.950000000000000067e-01
-2.049999999999999878e-01
-2.049999999999999878e-01
-1.950000000000000067e-01
-2.250000000000000056e-01
-2.250000000000000056e-01
-2.149999999999999967e-01
-2.250000000000000056e-01
-1.749999999999999889e-01
-1.849999999999999978e-01
-2.049999999999999878e-01
-1.950000000000000067e-01
-2.349999999999999867e-01
-2.349999999999999867e-01
-2.149999999999999967e-01
-2.349999999999999867e-01
-1.950000000000000067e-01
-2.250000000000000056e-01
-2.250000000000000056e-01
-2.149999999999999967e-01
-2.550000000000000044e-01
-2.449999999999999956e-01
-2.250000000000000056e-01
-2.349999999999999867e-01
-1.950000000000000067e-01
-2.250000000000000056e-01
-1.950000000000000067e-01
-1.650000000000000078e-01
-1.749999999999999889e-01
-1.350000000000000089e-01
-1.250000000000000000e-01
-1.250000000000000000e-01
5.000000000000000104e-03
-3.500000000000000333e-02
-1.250000000000000000e-01
-1.150000000000000050e-01
-1.650000000000000078e-01
-2.149999999999999967e-01
-1.950000000000000067e-01
-2.349999999999999867e-01
-2.049999999999999878e-01
-1.950000000000000067e-01
-2.049999999999999878e-01
-1.950000000000000067e-01
-2.149999999999999967e-01
-2.149999999999999967e-01
-1.950000000000000067e-01
-1.749999999999999889e-01
-2.049999999999999878e-01
-6.550000000000000266e-01
-6.850000000000000533e-01
5.350000000000000311e-01
2.015000000000000124e+00
2.734999999999999876e+00
2.615000000000000213e+00
7.950000000000000400e-01
-1.049999999999999961e-01
-1.350000000000000089e-01
-1.749999999999999889e-01
-2.149999999999999967e-01
-2.650000000000000133e-01
-2.750000000000000222e-01
-2.750000000000000222e-01
-2.550000000000000044e-01
-2.349999999999999867e-01
-2.349999999999999867e-01
-2.349999999999999867e-01
-2.149999999999999967e-01
-2.349999999999999867e-01
-2.250000000000000056e-01
-2.049999999999999878e-01
-1.950000000000000067e-01
-1.449999999999999900e-01
-1.350000000000000089e-01
-1.049999999999999961e-01
-5.500000000000000028e-02
-5.500000000000000028e-02
5.000000000000000104e-03
6.500000000000000222e-02
1.350000000000000089e-01
2.149999999999999967e-01
2.650000000000000133e-01
3.150000000000000022e-01
3.649999999999999911e-01
3.549999999999999822e-01
3.549999999999999822e-01
3.649999999999999911e-01
3.049999999999999933e-01
2.349999999999999867e-01
1.549999999999999989e-01
4.499999999999999833e-02
-1.499999999999999944e-02
-9.500000000000000111e-02
-1.449999999999999900e-01
-1.449999999999999900e-01
-1.350000000000000089e-01
-1.549999999999999989e-01
-1.350000000000000089e-01
-1.350000000000000089e-01
-1.350000000000000089e-01
-1.549999999999999989e-01
-1.549999999999999989e-01
-1.449999999999999900e-01
-1.150000000000000050e-01
-1.049999999999999961e-01
-1.049999999999999961e-01
-1.049999999999999961e-01
-1.049999999999999961e-01
-1.150000000000000050e-01
-1.250000000000000000e-01
-1.250000000000000000e-01
-1.150000000000000050e-01
-9.500000000000000111e-02
-8.500000000000000611e-02
-1.049999999999999961e-01
-1.049999999999999961e-01
-1.250000000000000000e-01
-1.350000000000000089e-01
-1.250000000000000000e-01
-1.150000000000000050e-01
-1.150000000000000050e-01
-1.150000000000000050e-01
-1.150000000000000050e-01
-1.150000000000000050e-01
-1.250000000000000000e-01
-1.449999999999999900e-01
-1.250000000000000000e-01
-1.150000000000000050e-01
-1.049999999999999961e-01
-1.150000000000000050e-01
-1.049999999999999961e-01
-8.500000000000000611e-02
-9.500000000000000111e-02
-6.500000000000000222e-02
-1.499999999999999944e-02
-5.000000000000000104e-03
4.499999999999999833e-02
1.250000000000000000e-01
6.500000000000000222e-02
-1.499999999999999944e-02
-5.500000000000000028e-02
-7.499999999999999722e-02
-9.500000000000000111e-02
-9.500000000000000111e-02
-1.049999999999999961e-01
-9.500000000000000111e-02
-9.500000000000000111e-02
-9.500000000000000111e-02
-1.150000000000000050e-01
-1.150000000000000050e-01
-1.049999999999999961e-01
-9.500000000000000111e-02
-3.500000000000000333e-02
-2.650000000000000133e-01
-6.149999999999999911e-01
-2.949999999999999845e-01
1.284999999999999920e+00
2.475000000000000089e+00
2.964999999999999858e+00
1.875000000000000000e+00
2.449999999999999956e-01
-4.499999999999999833e-02
-8.500000000000000611e-02
-1.150000000000000050e-01
-1.849999999999999978e-01
-1.950000000000000067e-01
-1.749999999999999889e-01
-1.849999999999999978e-01
-1.549999999999999989e-01
-1.650000000000000078e-01
-1.650000000000000078e-01
-1.350000000000000089e-01
-1.650000000000000078e-01
-1.449999999999999900e-01
-1.150000000000000050e-01
-1.150000000000000050e-01
-6.500000000000000222e-02
-5.500000000000000028e-02

